# 2-d radial distribution function g(r) 
# distance[A]  g(r)[-]  Coordination number[-]
   0.10    0.020702   0.208333E-04
   0.30    0.010351   0.520833E-04
   0.50    0.004140   0.729167E-04
   0.70    0.004436   0.104167E-03
   0.90    0.008051   0.177083E-03
   1.10    0.014115   0.333333E-03
   1.30    0.015128   0.531250E-03
   1.50    0.024152   0.895833E-03
   1.70    0.029835   0.140625E-02
   1.90    0.026150   0.190625E-02
   2.10    0.027602   0.248958E-02
   2.30    0.053555   0.372917E-02
   2.50    0.057551   0.517708E-02
   2.70    0.060572   0.682292E-02
   2.90    0.079238   0.913542E-02
   3.10    0.097165   0.121667E-01
   3.30    0.115742   0.160104E-01
   3.50    0.154672   0.214583E-01
   3.70    0.186876   0.284167E-01
   3.90    0.247891   0.381458E-01
   4.10    0.266851   0.491562E-01
   4.30    0.345913   0.641250E-01
   4.50    0.385054   0.815625E-01
   4.70    0.438041   0.102281E+00
   4.90    0.508673   0.127365E+00
   5.10    0.589799   0.157635E+00
   5.30    0.649763   0.192292E+00
   5.50    0.711578   0.231677E+00
   5.70    0.770688   0.275885E+00
   5.90    0.824037   0.324813E+00
   6.10    0.887123   0.379271E+00
   6.30    0.931746   0.438344E+00
   6.50    0.984928   0.502771E+00
   6.70    1.014388   0.571167E+00
   6.90    1.069743   0.645448E+00
   7.10    1.083492   0.722865E+00
   7.30    1.117898   0.804990E+00
   7.50    1.127696   0.890104E+00
   7.70    1.144917   0.978823E+00
   7.90    1.165721   0.107150E+01
   8.10    1.135149   0.116403E+01
   8.30    1.142341   0.125945E+01
   8.50    1.133119   0.135637E+01
   8.70    1.121586   0.145457E+01
   8.90    1.094521   0.155260E+01
   9.10    1.085594   0.165202E+01
   9.30    1.079388   0.175304E+01
   9.50    1.056228   0.185402E+01
   9.70    1.023459   0.195393E+01
   9.90    1.016584   0.205521E+01
  10.10    1.009777   0.215784E+01
  10.30    1.004540   0.226197E+01
  10.50    1.000982   0.236774E+01
  10.70    0.985174   0.247382E+01
  10.90    0.993022   0.258275E+01
  11.10    0.964592   0.269050E+01
  11.30    0.979580   0.280190E+01
  11.50    0.974875   0.291472E+01
  11.70    0.968119   0.302871E+01
  11.90    0.986206   0.314681E+01
  12.10    0.969050   0.326481E+01
  12.30    0.965159   0.338428E+01
  12.50    0.991202   0.350897E+01
  12.70    0.959211   0.363156E+01
  12.90    0.983737   0.375927E+01
  13.10    0.986180   0.388928E+01
  13.30    0.980456   0.402051E+01
  13.50    0.982876   0.415404E+01
  13.70    0.993082   0.429096E+01
  13.90    0.995995   0.443028E+01
  14.10    0.985391   0.457010E+01
  14.30    0.992022   0.471286E+01
  14.50    0.979981   0.485586E+01
  14.70    0.950452   0.499647E+01
  14.90    0.959508   0.514034E+01
  15.10    0.971065   0.528791E+01
  15.30    0.972579   0.543766E+01
  15.50    0.980264   0.559056E+01
  15.70    0.970414   0.574389E+01
  15.90    0.958468   0.589725E+01
  16.10    0.960191   0.605282E+01
  16.30    0.960284   0.621034E+01
  16.50    0.953914   0.636874E+01
  16.70    0.954019   0.652907E+01
  16.90    0.960490   0.669243E+01
  17.10    0.959971   0.685762E+01
  17.30    0.963771   0.702542E+01
  17.50    0.954235   0.719347E+01
  17.70    0.959476   0.736437E+01
  17.90    0.959164   0.753716E+01
  18.10    0.952855   0.771072E+01
  18.30    0.955281   0.788665E+01
  18.50    0.963921   0.806610E+01
  18.70    0.960586   0.824688E+01
  18.90    0.951516   0.842785E+01
  19.10    0.968216   0.861396E+01
  19.30    0.968212   0.880201E+01
  19.50    0.971127   0.899258E+01
  19.70    0.973142   0.918551E+01
  19.90    0.969500   0.937967E+01
  20.10    0.965827   0.957503E+01
  20.30    0.972832   0.977377E+01
  20.50    0.984447   0.997686E+01
  20.70    0.966884   0.101783E+02
  20.90    0.966992   0.103817E+02
  21.10    0.980785   0.105899E+02
  21.30    0.978428   0.107997E+02
  21.50    0.962634   0.110079E+02
  21.70    0.962157   0.112181E+02
  21.90    0.962681   0.114302E+02
  22.10    0.964648   0.116448E+02
  22.30    0.951912   0.118584E+02
  22.50    0.959414   0.120756E+02
  22.70    0.966008   0.122963E+02
  22.90    0.961052   0.125178E+02
  23.10    0.959228   0.127408E+02
  23.30    0.968009   0.129678E+02
  23.50    0.953604   0.131933E+02
  23.70    0.963202   0.134230E+02
  23.90    0.960858   0.136541E+02
  24.10    0.984839   0.138930E+02
  24.30    0.970131   0.141302E+02
  24.50    0.980040   0.143718E+02
  24.70    0.961922   0.146109E+02
  24.90    0.975230   0.148553E+02
  25.10    0.970634   0.151005E+02
  25.30    0.968362   0.153470E+02
  25.50    0.968642   0.155956E+02
  25.70    0.973267   0.158473E+02
  25.90    0.973145   0.161010E+02
  26.10    0.976633   0.163575E+02
  26.30    0.985343   0.166183E+02
  26.50    0.976657   0.168788E+02
  26.70    0.976862   0.171412E+02
  26.90    0.976871   0.174057E+02
  27.10    1.000829   0.176786E+02
  27.30    0.989743   0.179505E+02
  27.50    0.974114   0.182201E+02
  27.70    0.984046   0.184944E+02
  27.90    0.989420   0.187722E+02
  28.10    0.985767   0.190510E+02
  28.30    0.993870   0.193341E+02
  28.50    0.988021   0.196174E+02
  28.70    1.003064   0.199071E+02
  28.90    0.994904   0.201965E+02
  29.10    0.995430   0.204880E+02
  29.30    0.993722   0.207810E+02
  29.50    0.988002   0.210743E+02
  29.70    0.989748   0.213701E+02
  29.90    0.995002   0.216695E+02
  30.10    0.992689   0.219702E+02
  30.30    0.987708   0.222714E+02
  30.50    0.992669   0.225761E+02
  30.70    0.987685   0.228812E+02
  30.90    0.975698   0.231847E+02
  31.10    0.998679   0.234972E+02
  31.30    0.978871   0.238056E+02
  31.50    0.979458   0.241160E+02
  31.70    0.906896   0.244054E+02
  31.90    0.828819   0.246714E+02
  32.10    0.781348   0.249238E+02
  32.30    0.736613   0.251633E+02
  32.50    0.700677   0.253924E+02
  32.70    0.677114   0.256153E+02
  32.90    0.651635   0.258310E+02
  33.10    0.620585   0.260377E+02
  33.30    0.600073   0.262388E+02
  33.50    0.569763   0.264309E+02
  33.70    0.555447   0.266193E+02
  33.90    0.533606   0.268013E+02
